%#      Wavelength,  spectrum,    dark current
1.50392      5794.00      5788.74
1.50412      5834.00      5783.74
1.50431      5794.00      5805.74
1.50451      5970.00      5943.74
1.50470      5836.00      5786.74
1.50490      5761.00      5747.74
1.50509      5929.00      5888.74
1.50529      5750.00      5702.74
1.50549      5877.00      5801.74
1.50568      5866.00      5768.74
1.50588      5912.00      5772.74
1.50607      6037.00      5837.74
1.50627      6033.00      5782.74
1.50646      6023.00      5712.74
1.50666      6096.00      5775.74
1.50685      6162.00      5785.74
1.50705      6243.00      5814.74
1.50724      6191.00      5730.74
1.50744      6116.00      5747.74
1.50763      6160.00      5754.74
1.50783      6097.00      5698.74
1.50802      6136.00      5772.74
1.50822      6061.00      5728.74
1.50841      6126.00      5777.74
1.50861      6122.00      5772.74
1.50880      5990.00      5652.74
1.50900      5950.00      5685.74
1.50919      6039.00      5762.74
1.50939      5800.00      5567.74
1.50958      6032.00      5799.74
1.50978      5933.00      5731.74
1.50997      5827.00      5656.74
1.51017      5869.00      5699.74
1.51036      5819.00      5692.74
1.51056      5782.00      5683.74
1.51075      5787.00      5697.74
1.51094      5831.00      5702.74
1.51114      5831.00      5748.74
1.51133      5735.00      5635.74
1.51153      5830.00      5724.74
1.51172      5665.00      5584.74
1.51192      5704.00      5646.74
1.51211      5751.00      5684.74
1.51231      5773.00      5733.74
1.51250      5753.00      5677.74
1.51270      5701.00      5627.74
1.51289      5706.00      5653.74
1.51308      5726.00      5645.74
1.51328      5638.00      5592.74
1.51347      5843.00      5787.74
1.51367      5599.00      5526.74
1.51386      5762.00      5680.74
1.51406      5755.00      5713.74
1.51425      5709.00      5651.74
1.51444      5741.00      5701.74
1.51464      5821.00      5757.74
1.51483      5653.00      5604.74
1.51503      5673.00      5590.74
1.51522      5719.00      5671.74
1.51541      5670.00      5617.74
1.51561      5764.00      5741.74
1.51580      5623.00      5563.74
1.51600      5707.00      5645.74
1.51619      5718.00      5666.74
1.51638      5733.00      5673.74
1.51658      5744.00      5685.74
1.51677      5669.00      5613.74
1.51696      5705.00      5622.74
1.51716      5554.00      5502.74
1.51735      5765.00      5718.74
1.51755      5730.00      5684.74
1.51774      5684.00      5619.74
1.51793      5703.00      5636.74
1.51813      5742.00      5725.74
1.51832      5775.00      5725.74
1.51851      5708.00      5661.74
1.51871      5789.00      5738.74
1.51890      5736.00      5671.74
1.51909      5702.00      5636.74
1.51929      5830.00      5742.74
1.51948      5760.00      5692.74
1.51967      5834.00      5724.74
1.51987      5724.00      5657.74
1.52006      5787.00      5710.74
1.52025      5792.00      5711.74
1.52045      5678.00      5611.74
1.52064      5744.00      5667.74
1.52083      5735.00      5668.74
1.52103      5664.00      5618.74
1.52122      5693.00      5633.74
1.52141      5746.00      5701.74
1.52161      5658.00      5637.74
1.52180      5784.00      5731.74
1.52199      5717.00      5660.74
1.52219      5732.00      5699.74
1.52238      5790.00      5742.74
1.52257      5662.00      5642.74
1.52277      5742.00      5730.74
1.52296      5641.00      5643.74
1.52315      5655.00      5640.74
1.52334      5630.00      5615.74
1.52354      5650.00      5630.74
1.52373      5551.00      5556.74
1.52392      5813.00      5750.74
1.52412      5686.00      5590.74
1.52431      5778.00      5628.74
1.52450      5701.00      5541.74
1.52469      5935.00      5703.74
1.52489      5830.00      5593.74
1.52508      5895.00      5637.74
1.52527      5966.00      5666.74
1.52546      5973.00      5678.74
1.52566      5805.00      5555.74
1.52585      5959.00      5728.74
1.52604      5924.00      5732.74
1.52623      5825.00      5651.74
1.52643      5719.00      5576.74
1.52662      5810.00      5663.74
1.52681      5857.00      5714.74
1.52700      5689.00      5569.74
1.52720      5635.00      5542.74
1.52739      5794.00      5683.74
1.52758      5684.00      5618.74
1.52777      5701.00      5624.74
1.52797      5602.00      5541.74
1.52816      5742.00      5686.74
1.52835      5621.00      5597.74
1.52854      5783.00      5705.74
1.52873      5732.00      5697.74
1.52893      5653.00      5624.74
1.52912      5630.00      5619.74
1.52931      5765.00      5692.74
1.52950      5608.00      5549.74
1.52969      5732.00      5680.74
1.52989      5610.00      5562.74
1.53008      5796.00      5752.74
1.53027      5634.00      5561.74
1.53046      5653.00      5591.74
1.53065      5774.00      5703.74
1.53085      5683.00      5655.74
1.53104      5728.00      5667.74
1.53123      5719.00      5679.74
1.53142      5585.00      5544.74
1.53161      5615.00      5574.74
1.53180      5666.00      5623.74
1.53200      5632.00      5631.74
1.53219      5707.00      5681.74
1.53238      5785.00      5761.74
1.53257      5553.00      5540.74
1.53276      5793.00      5745.74
1.53295      5647.00      5554.74
1.53315      5728.00      5643.74
1.53334      5742.00      5587.74
1.53353      5853.00      5678.74
1.53372      5882.00      5631.74
1.53391      5938.00      5698.74
1.53410      5744.00      5495.74
1.53429      5936.00      5651.74
1.53448      5826.00      5538.74
1.53468      5871.00      5628.74
1.53487      5811.00      5607.74
1.53506      5879.00      5639.74
1.53525      5818.00      5626.74
1.53544      5875.00      5692.74
1.53563      5841.00      5670.74
1.53582      5850.00      5663.74
1.53601      5608.00      5455.74
1.53621      5824.00      5698.74
1.53640      5812.00      5703.74
1.53659      5734.00      5609.74
1.53678      5762.00      5687.74
1.53697      5612.00      5511.74
1.53716      5667.00      5585.74
1.53735      5609.00      5572.74
1.53754      5727.00      5650.74
1.53773      5667.00      5615.74
1.53792      5693.00      5628.74
1.53811      5646.00      5554.74
1.53830      5591.00      5543.74
1.53850      5806.00      5759.74
1.53869      5659.00      5582.74
1.53888      5681.00      5641.74
1.53907      5689.00      5626.74
1.53926      5609.00      5522.74
1.53945      5691.00      5622.74
1.53964      5714.00      5604.74
1.53983      5714.00      5623.74
1.54002      5809.00      5699.74
1.54021      5708.00      5603.74
1.54040      5834.00      5749.74
1.54059      5595.00      5504.74
1.54078      5725.00      5602.74
1.54097      5621.00      5534.74
1.54116      5693.00      5593.74
1.54135      5642.00      5547.74
1.54154      5704.00      5614.74
1.54173      5689.00      5643.74
1.54192      5596.00      5527.74
1.54211      5632.00      5571.74
1.54230      5643.00      5586.74
1.54249      5652.00      5599.74
1.54268      5683.00      5637.74
1.54287      5557.00      5460.74
1.54306      5748.00      5622.74
1.54325      5720.00      5591.74
1.54344      5666.00      5529.74
1.54363      5766.00      5619.74
1.54382      5700.00      5543.74
1.54401      5739.00      5583.74
1.54420      5719.00      5542.74
1.54439      5702.00      5479.74
1.54458      5805.00      5628.74
1.54477      5401.00      5243.74
1.54496      5785.00      5629.74
1.54515      5560.00      5433.74
1.54534      5630.00      5501.74
1.54553      5645.00      5529.74
1.54572      5640.00      5533.74
1.54591      5485.00      5398.74
1.54610      5542.00      5427.74
1.54629      5707.00      5605.74
1.54648      5591.00      5522.74
1.54667      5660.00      5564.74
1.54686      5491.00      5399.74
1.54705      5533.00      5463.74
1.54724      5496.00      5427.74
1.54743      5566.00      5508.74
1.54761      5713.00      5656.74
1.54780      5500.00      5441.74
1.54799      5662.00      5642.74
1.54818      5605.00      5537.74
1.54837      5581.00      5518.74
1.54856      5525.00      5485.74
1.54875      5511.00      5479.74
1.54894      5524.00      5474.74
1.54913      5622.00      5551.74
1.54932      5413.00      5379.74
1.54951      5596.00      5521.74
1.54970      5564.00      5532.74
1.54988      5425.00      5392.74
1.55007      5693.00      5590.74
1.55026      5616.00      5537.74
1.55045      5502.00      5457.74
1.55064      5601.00      5506.74
1.55083      5536.00      5470.74
1.55102      5424.00      5312.74
1.55121      5612.00      5564.74
1.55140      5442.00      5375.74
1.55158      5525.00      5482.74
1.55177      5577.00      5520.74
1.55196      5509.00      5411.74
1.55215      5541.00      5461.74
1.55234      5425.00      5380.74
1.55253      5634.00      5563.74
1.55272      5500.00      5449.74
1.55290      5523.00      5494.74
1.55309      5496.00      5432.74
1.55328      5472.00      5420.74
1.55347      5588.00      5499.74
1.55366      5462.00      5393.74
1.55385      5560.00      5460.74
1.55403      5532.00      5452.74
1.55422      5633.00      5522.74
1.55441      5617.00      5527.74
1.55460      5603.00      5489.74
1.55479      5646.00      5556.74
1.55498      5619.00      5490.74
1.55516      5469.00      5337.74
1.55535      5553.00      5464.74
1.55554      5724.00      5605.74
1.55573      5609.00      5504.74
1.55592      5496.00      5383.74
1.55610      5559.00      5463.74
1.55629      5633.00      5534.74
1.55648      5642.00      5510.74
1.55667      5557.00      5422.74
1.55686      5469.00      5395.74
1.55704      5580.00      5493.74
1.55723      5489.00      5426.74
1.55742      5589.00      5498.74
1.55761      5463.00      5380.74
1.55779      5580.00      5482.74
1.55798      5516.00      5460.74
1.55817      5594.00      5519.74
1.55836      5481.00      5401.74
1.55855      5636.00      5566.74
1.55873      5540.00      5477.74
1.55892      5448.00      5375.74
1.55911      5452.00      5397.74
1.55930      5610.00      5523.74
1.55948      5600.00      5525.74
1.55967      5595.00      5507.74
1.55986      5465.00      5351.74
1.56005      5579.00      5473.74
1.56023      5692.00      5565.74
1.56042      5655.00      5517.74
1.56061      5527.00      5379.74
1.56079      5571.00      5461.74
1.56098      5625.00      5515.74
1.56117      5689.00      5557.74
1.56136      5603.00      5491.74
1.56154      5489.00      5416.74
1.56173      5645.00      5545.74
1.56192      5693.00      5596.74
1.56210      5515.00      5431.74
1.56229      5808.00      5729.74
1.56248      5582.00      5515.74
1.56267      5554.00      5459.74
1.56285      5564.00      5463.74
1.56304      5757.00      5674.74
1.56323      5546.00      5471.74
1.56341      5632.00      5504.74
1.56360      5526.00      5472.74
1.56379      5580.00      5513.74
1.56397      5659.00      5585.74
1.56416      5701.00      5606.74
1.56435      5538.00      5467.74
1.56453      5704.00      5639.74
1.56472      5505.00      5448.74
1.56491      5717.00      5594.74
1.56509      5598.00      5462.74
1.56528      5778.00      5676.74
1.56547      5691.00      5553.74
1.56565      5838.00      5686.74
1.56584      5585.00      5394.74
1.56603      5705.00      5514.74
1.56621      5947.00      5761.74
1.56640      5764.00      5558.74
1.56658      5777.00      5553.74
1.56677      5610.00      5483.74
1.56696      5734.00      5599.74
1.56714      5596.00      5455.74
1.56733      5846.00      5717.74
1.56752      5775.00      5650.74
1.56770      5524.00      5459.74
1.56789      5814.00      5708.74
1.56807      5608.00      5472.74
1.56826      5727.00      5635.74
1.56845      5632.00      5557.74
1.56863      5693.00      5642.74
1.56882      5675.00      5600.74
1.56900      5612.00      5518.74
1.56919      5554.00      5539.74
1.56938      5749.00      5713.74
1.56956      5618.00      5538.74
1.56975      5661.00      5594.74
1.56993      5707.00      5661.74
1.57012      5622.00      5569.74
1.57031      5561.00      5529.74
1.57049      5787.00      5726.74
1.57068      5606.00      5554.74
1.57086      5742.00      5691.74
1.57105      5683.00      5606.74
1.57123      6074.00      5968.74
1.57142      5592.00      5511.74
1.57160      5727.00      5664.74
1.57179      5614.00      5564.74
1.57198      5732.00      5696.74
1.57216      5615.00      5551.74
1.57235      5760.00      5678.74
1.57253      5669.00      5629.74
1.57272      5670.00      5625.74
1.57290      5607.00      5585.74
1.57309      5717.00      5659.74
1.57327      5585.00      5532.74
1.57346      5795.00      5719.74
1.57364      5619.00      5593.74
1.57383      5632.00      5600.74
1.57401      5596.00      5545.74
1.57420      5728.00      5664.74
1.57438      5668.00      5614.74
1.57457      5737.00      5658.74
1.57475      5699.00      5650.74
1.57494      5647.00      5608.74
1.57512      5560.00      5481.74
1.57531      5727.00      5657.74
1.57549      5740.00      5693.74
1.57568      5672.00      5610.74
1.57586      5648.00      5574.74
1.57605      5682.00      5598.74
1.57623      5605.00      5530.74
1.57642      5730.00      5650.74
1.57660      5677.00      5602.74
1.57679      5645.00      5568.74
1.57697      5690.00      5600.74
1.57716      5725.00      5668.74
1.57734      5609.00      5532.74
1.57752      5862.00      5773.74
1.57771      5757.00      5650.74
1.57789      5592.00      5537.74
1.57808      5823.00      5743.74
1.57826      5670.00      5597.74
1.57845      5650.00      5588.74
1.57863      5794.00      5749.74
1.57882      5545.00      5480.74
1.57900      5849.00      5781.74
1.57918      5579.00      5483.74
1.57937      5831.00      5764.74
1.57955      5640.00      5579.74
1.57974      5779.00      5700.74
1.57992      5760.00      5661.74
1.58010      5791.00      5616.74
1.58029      5798.00      5621.74
1.58047      5862.00      5702.74
1.58066      5798.00      5593.74
1.58084      5900.00      5683.74
1.58102      5791.00      5573.74
1.58121      5838.00      5605.74
1.58139      5844.00      5596.74
1.58158      5948.00      5708.74
1.58176      5850.00      5605.74
1.58194      5816.00      5620.74
1.58213      5817.00      5597.74
1.58231      5899.00      5717.74
1.58250      5815.00      5583.74
1.58268      6044.00      5734.74
1.58286      6060.00      5745.74
1.58305      5938.00      5604.74
1.58323      5837.00      5506.74
1.58341      6163.00      5730.74
1.58360      6113.00      5683.74
1.58378      6225.00      5759.74
1.58396      6081.00      5573.74
1.58415      6013.00      5527.74
1.58433      6183.00      5696.74
1.58451      6073.00      5624.74
1.58470      5961.00      5585.74
1.58488      6163.00      5786.74
1.58506      5903.00      5547.74
1.58525      6017.00      5654.74
1.58543      6048.00      5736.74
1.58561      5952.00      5642.74
1.58580      5890.00      5634.74
1.58598      6091.00      5819.74
1.58616      5947.00      5699.74
1.58635      5945.00      5722.74
1.58653      5927.00      5707.74
1.58671      5934.00      5717.74
1.58689      5738.00      5587.74
1.58708      5885.00      5729.74
1.58726      5837.00      5683.74
1.58744      5807.00      5669.74
1.58763      5927.00      5800.74
1.58781      5787.00      5663.74
1.58799      5764.00      5673.74
1.58817      5842.00      5788.74
1.58836      5663.00      5584.74
1.58854      5848.00      5767.74
1.58872      5759.00      5682.74
1.58891      5829.00      5718.74
1.58909      5816.00      5740.74
1.58927      5755.00      5712.74
1.58945      5845.00      5775.74
1.58964      5720.00      5629.74
1.58982      5699.00      5638.74
1.59000      5860.00      5822.74
1.59018      5825.00      5779.74
1.59036      5727.00      5640.74
1.59055      5734.00      5720.74
1.59073      5844.00      5785.74
1.59091      5745.00      5651.74
1.59109      5773.00      5710.74
1.59128      5717.00      5660.74
1.59146      5790.00      5766.74
1.59164      5669.00      5617.74
1.59182      5714.00      5639.74
1.59200      5774.00      5735.74
1.59219      5820.00      5798.74
1.59237      5719.00      5676.74
1.59255      5769.00      5705.74
1.59273      5624.00      5595.74
1.59291      5835.00      5795.74
1.59310      5749.00      5716.74
1.59328      5738.00      5719.74
1.59346      5791.00      5787.74
1.59364      5750.00      5724.74
1.59382      5754.00      5699.74
1.59401      5913.00      5858.74
1.59419      5728.00      5714.74
1.59437      5865.00      5845.74
1.59455      5894.00      5873.74
1.59473      5928.00      5878.74
1.59491      5705.00      5674.74
1.59509      5887.00      5861.74
1.59528      5852.00      5812.74
1.59546      5925.00      5868.74
1.59564      5976.00      5948.74
1.59582      5992.00      5951.74
1.59600      5920.00      5921.74
1.59618      5882.00      5830.74
1.59636      5878.00      5842.74
1.59655      6114.00      6067.74
1.59673      5895.00      5843.74
1.59691      5883.00      5824.74
1.59709      5904.00      5841.74
1.59727      6120.00      6047.74
1.59745      6041.00      5966.74
1.59763      6075.00      5967.74
1.59781      6091.00      5977.74
1.59799      6125.00      6055.74
1.59818      5962.00      5882.74
1.59836      6150.00      6088.74
1.59854      6073.00      6037.74
1.59872      6182.00      6111.74
1.59890      6068.00      6038.74
1.59908      6096.00      6064.74
1.59926      5937.00      5921.74
1.59944      6065.00      6043.74
1.59962      5990.00      5979.74
1.59980      6151.00      6124.74
1.59998      5903.00      587