      Wavelength,  spectrum,    dark current
      1.50392      5805.00      5817.47
      1.50412      5812.00      5814.47
      1.50431      5821.00      5856.47
      1.50451      5869.00      5852.47
      1.50470      5810.00      5805.47
      1.50490      5735.00      5784.47
      1.50509      5820.00      5827.47
      1.50529      5739.00      5766.47
      1.50549      5775.00      5824.47
      1.50568      5704.00      5737.47
      1.50588      5787.00      5807.47
      1.50607      5770.00      5769.47
      1.50627      5937.00      5821.47
      1.50646      5949.00      5761.47
      1.50666      5952.00      5801.47
      1.50685      5939.00      5787.47
      1.50705      5898.00      5749.47
      1.50724      5937.00      5771.47
      1.50744      5880.00      5698.47
      1.50763      5887.00      5710.47
      1.50783      5957.00      5788.47
      1.50802      5890.00      5721.47
      1.50822      5924.00      5777.47
      1.50841      5901.00      5749.47
      1.50861      5909.00      5806.47
      1.50880      5801.00      5658.47
      1.50900      5804.00      5680.47
      1.50919      5849.00      5755.47
      1.50939      5767.00      5655.47
      1.50958      5812.00      5744.47
      1.50978      5810.00      5696.47
      1.50997      5753.00      5669.47
      1.51017      5822.00      5759.47
      1.51036      5685.00      5650.47
      1.51056      5682.00      5648.47
      1.51075      5713.00      5688.47
      1.51094      5787.00      5745.47
      1.51114      5706.00      5692.47
      1.51133      5703.00      5680.47
      1.51153      5721.00      5700.47
      1.51172      5645.00      5628.47
      1.51192      5664.00      5690.47
      1.51211      5708.00      5695.47
      1.51231      5688.00      5712.47
      1.51250      5708.00      5697.47
      1.51270      5638.00      5603.47
      1.51289      5669.00      5623.47
      1.51308      5687.00      5684.47
      1.51328      5632.00      5620.47
      1.51347      5719.00      5670.47
      1.51367      5644.00      5627.47
      1.51386      5666.00      5680.47
      1.51406      5701.00      5733.47
      1.51425      5644.00      5613.47
      1.51444      5689.00      5671.47
      1.51464      5716.00      5705.47
      1.51483      5658.00      5666.47
      1.51503      5551.00      5557.47
      1.51522      5645.00      5649.47
      1.51541      5638.00      5669.47
      1.51561      5676.00      5686.47
      1.51580      5625.00      5601.47
      1.51600      5652.00      5655.47
      1.51619      5648.00      5641.47
      1.51638      5693.00      5671.47
      1.51658      5642.00      5634.47
      1.51677      5681.00      5637.47
      1.51696      5645.00      5664.47
      1.51716      5570.00      5600.47
      1.51735      5677.00      5666.47
      1.51755      5640.00      5661.47
      1.51774      5657.00      5668.47
      1.51793      5641.00      5659.47
      1.51813      5656.00      5661.47
      1.51832      5693.00      5716.47
      1.51851      5676.00      5663.47
      1.51871      5681.00      5678.47
      1.51890      5694.00      5653.47
      1.51909      5675.00      5642.47
      1.51929      5753.00      5742.47
      1.51948      5718.00      5681.47
      1.51967      5714.00      5686.47
      1.51987      5720.00      5685.47
      1.52006      5699.00      5655.47
      1.52025      5644.00      5613.47
      1.52045      5712.00      5667.47
      1.52064      5659.00      5658.47
      1.52083      5663.00      5688.47
      1.52103      5614.00      5615.47
      1.52122      5691.00      5673.47
      1.52141      5678.00      5650.47
      1.52161      5680.00      5692.47
      1.52180      5722.00      5711.47
      1.52199      5647.00      5647.47
      1.52219      5688.00      5684.47
      1.52238      5719.00      5707.47
      1.52257      5605.00      5622.47
      1.52277      5730.00      5722.47
      1.52296      5603.00      5623.47
      1.52315      5676.00      5678.47
      1.52334      5643.00      5614.47
      1.52354      5602.00      5606.47
      1.52373      5601.00      5623.47
      1.52392      5704.00      5695.47
      1.52412      5528.00      5530.47
      1.52431      5613.00      5604.47
      1.52450      5631.00      5605.47
      1.52469      5811.00      5670.47
      1.52489      5784.00      5584.47
      1.52508      5792.00      5612.47
      1.52527      5810.00      5659.47
      1.52546      5769.00      5665.47
      1.52566      5677.00      5544.47
      1.52585      5768.00      5674.47
      1.52604      5734.00      5667.47
      1.52623      5694.00      5601.47
      1.52643      5631.00      5569.47
      1.52662      5718.00      5690.47
      1.52681      5714.00      5642.47
      1.52700      5598.00      5566.47
      1.52720      5597.00      5565.47
      1.52739      5677.00      5658.47
      1.52758      5655.00      5638.47
      1.52777      5620.00      5606.47
      1.52797      5569.00      5573.47
      1.52816      5633.00      5660.47
      1.52835      5553.00      5573.47
      1.52854      5673.00      5695.47
      1.52873      5652.00      5667.47
      1.52893      5637.00      5650.47
      1.52912      5627.00      5651.47
      1.52931      5721.00      5667.47
      1.52950      5628.00      5569.47
      1.52969      5715.00      5649.47
      1.52989      5606.00      5574.47
      1.53008      5775.00      5709.47
      1.53027      5624.00      5568.47
      1.53046      5647.00      5628.47
      1.53065      5677.00      5649.47
      1.53085      5695.00      5678.47
      1.53104      5640.00      5630.47
      1.53123      5661.00      5676.47
      1.53142      5536.00      5532.47
      1.53161      5660.00      5672.47
      1.53180      5575.00      5580.47
      1.53200      5656.00      5670.47
      1.53219      5636.00      5655.47
      1.53238      5744.00      5729.47
      1.53257      5515.00      5536.47
      1.53276      5702.00      5697.47
      1.53295      5577.00      5581.47
      1.53315      5641.00      5630.47
      1.53334      5599.00      5599.47
      1.53353      5730.00      5698.47
      1.53372      5745.00      5616.47
      1.53391      5845.00      5650.47
      1.53410      5668.00      5511.47
      1.53429      5809.00      5637.47
      1.53448      5685.00      5552.47
      1.53468      5715.00      5602.47
      1.53487      5664.00      5571.47
      1.53506      5750.00      5667.47
      1.53525      5661.00      5595.47
      1.53544      5711.00      5649.47
      1.53563      5719.00      5639.47
      1.53582      5732.00      5645.47
      1.53601      5584.00      5514.47
      1.53621      5700.00      5640.47
      1.53640      5675.00      5642.47
      1.53659      5691.00      5663.47
      1.53678      5646.00      5606.47
      1.53697      5580.00      5551.47
      1.53716      5611.00      5568.47
      1.53735      5588.00      5591.47
      1.53754      5614.00      5607.47
      1.53773      5648.00      5623.47
      1.53792      5598.00      5610.47
      1.53811      5579.00      5575.47
      1.53830      5570.00      5586.47
      1.53850      5684.00      5685.47
      1.53869      5613.00      5579.47
      1.53888      5623.00      5597.47
      1.53907      5606.00      5626.47
      1.53926      5597.00      5586.47
      1.53945      5616.00      5624.47
      1.53964      5629.00      5598.47
      1.53983      5625.00      5601.47
      1.54002      5702.00      5638.47
      1.54021      5662.00      5620.47
      1.54040      5712.00      5662.47
      1.54059      5556.00      5507.47
      1.54078      5645.00      5607.47
      1.54097      5573.00      5553.47
      1.54116      5634.00      5598.47
      1.54135      5581.00      5564.47
      1.54154      5643.00      5583.47
      1.54173      5582.00      5563.47
      1.54192      5600.00      5549.47
      1.54211      5623.00      5594.47
      1.54230      5580.00      5559.47
      1.54249      5555.00      5556.47
      1.54268      5563.00      5573.47
      1.54287      5542.00      5531.47
      1.54306      5609.00      5607.47
      1.54325      5580.00      5558.47
      1.54344      5611.00      5532.47
      1.54363      5686.00      5558.47
      1.54382      5756.00      5594.47
      1.54401      5668.00      5536.47
      1.54420      5682.00      5571.47
      1.54439      5604.00      5505.47
      1.54458      5677.00      5601.47
      1.54477      5548.00      5464.47
      1.54496      5534.00      5486.47
      1.54515      5516.00      5446.47
      1.54534      5555.00      5510.47
      1.54553      5588.00      5569.47
      1.54572      5586.00      5531.47
      1.54591      5433.00      5386.47
      1.54610      5559.00      5505.47
      1.54629      5597.00      5552.47
      1.54648      5530.00      5507.47
      1.54667      5562.00      5528.47
      1.54686      5508.00      5497.47
      1.54705      5464.00      5450.47
      1.54724      5508.00      5473.47
      1.54743      5496.00      5517.47
      1.54761      5584.00      5595.47
      1.54780      5526.00      5506.47
      1.54799      5595.00      5563.47
      1.54818      5546.00      5558.47
      1.54837      5545.00      5539.47
      1.54856      5503.00      5488.47
      1.54875      5495.00      5470.47
      1.54894      5489.00      5481.47
      1.54913      5520.00      5530.47
      1.54932      5445.00      5443.47
      1.54951      5514.00      5520.47
      1.54970      5527.00      5507.47
      1.54988      5471.00      5458.47
      1.55007      5594.00      5574.47
      1.55026      5523.00      5493.47
      1.55045      5469.00      5458.47
      1.55064      5565.00      5515.47
      1.55083      5478.00      5432.47
      1.55102      5428.00      5368.47
      1.55121      5514.00      5484.47
      1.55140      5524.00      5444.47
      1.55158      5482.00      5435.47
      1.55177      5517.00      5494.47
      1.55196      5505.00      5456.47
      1.55215      5467.00      5425.47
      1.55234      5445.00      5415.47
      1.55253      5592.00      5532.47
      1.55272      5477.00      5475.47
      1.55290      5489.00      5460.47
      1.55309      5513.00      5477.47
      1.55328      5459.00      5435.47
      1.55347      5499.00      5458.47
      1.55366      5462.00      5446.47
      1.55385      5459.00      5439.47
      1.55403      5522.00      5472.47
      1.55422      5517.00      5472.47
      1.55441      5598.00      5508.47
      1.55460      5517.00      5455.47
      1.55479      5620.00      5525.47
      1.55498      5551.00      5479.47
      1.55516      5546.00      5400.47
      1.55535      5529.00      5448.47
      1.55554      5640.00      5525.47
      1.55573      5543.00      5487.47
      1.55592      5476.00      5408.47
      1.55610      5543.00      5487.47
      1.55629      5559.00      5515.47
      1.55648      5537.00      5497.47
      1.55667      5573.00      5488.47
      1.55686      5490.00      5419.47
      1.55704      5511.00      5444.47
      1.55723      5486.00      5431.47
      1.55742      5552.00      5535.47
      1.55761      5483.00      5430.47
      1.55779      5503.00      5490.47
      1.55798      5511.00      5480.47
      1.55817      5509.00      5475.47
      1.55836      5485.00      5467.47
      1.55855      5589.00      5558.47
      1.55873      5513.00      5480.47
      1.55892      5385.00      5387.47
      1.55911      5423.00      5417.47
      1.55930      5543.00      5546.47
      1.55948      5485.00      5486.47
      1.55967      5486.00      5475.47
      1.55986      5473.00      5396.47
      1.56005      5607.00      5532.47
      1.56023      5629.00      5510.47
      1.56042      5557.00      5474.47
      1.56061      5484.00      5421.47
      1.56079      5549.00      5459.47
      1.56098      5557.00      5493.47
      1.56117      5596.00      5531.47
      1.56136      5517.00      5454.47
      1.56154      5506.00      5469.47
      1.56173      5562.00      5529.47
      1.56192      5575.00      5547.47
      1.56210      5490.00      5476.47
      1.56229      5622.00      5586.47
      1.56248      5548.00      5533.47
      1.56267      5550.00      5504.47
      1.56285      5527.00      5517.47
      1.56304      5610.00      5568.47
      1.56323      5538.00      5489.47
      1.56341      5596.00      5549.47
      1.56360      5521.00      5479.47
      1.56379      5588.00      5521.47
      1.56397      5599.00      5561.47
      1.56416      5672.00      5612.47
      1.56435      5559.00      5516.47
      1.56453      5644.00      5609.47
      1.56472      5546.00      5534.47
      1.56491      5618.00      5588.47
      1.56509      5568.00      5552.47
      1.56528      5619.00      5595.47
      1.56547      5624.00      5544.47
      1.56565      5734.00      5620.47
      1.56584      5653.00      5474.47
      1.56603      5676.00      5550.47
      1.56621      5753.00      5625.47
      1.56640      5724.00      5606.47
      1.56658      5666.00      5580.47
      1.56677      5651.00      5567.47
      1.56696      5637.00      5550.47
      1.56714      5642.00      5595.47
      1.56733      5661.00      5639.47
      1.56752      5667.00      5626.47
      1.56770      5575.00      5559.47
      1.56789      5682.00      5667.47
      1.56807      5553.00      5542.47
      1.56826      5625.00      5616.47
      1.56845      5596.00      5561.47
      1.56863      5625.00      5589.47
      1.56882      5622.00      5603.47
      1.56900      5590.00      5560.47
      1.56919      5516.00      5518.47
      1.56938      5655.00      5650.47
      1.56956      5609.00      5606.47
      1.56975      5590.00      5585.47
      1.56993      5567.00      5593.47
      1.57012      5566.00      5600.47
      1.57031      5577.00      5553.47
      1.57049      5662.00      5673.47
      1.57068      5562.00      5545.47
      1.57086      5666.00      5687.47
      1.57105      5607.00      5615.47
      1.57123      5724.00      5730.47
      1.57142      5562.00      5574.47
      1.57160      5632.00      5617.47
      1.57179      5566.00      5568.47
      1.57198      5624.00      5626.47
      1.57216      5611.00      5661.47
      1.57235      5632.00      5662.47
      1.57253      5590.00      5604.47
      1.57272      5613.00      5645.47
      1.57290      5543.00      5546.47
      1.57309      5642.00      5664.47
      1.57327      5490.00      5518.47
      1.57346      5669.00      5670.47
      1.57364      5537.00      5572.47
      1.57383      5623.00      5636.47
      1.57401      5562.00      5571.47
      1.57420      5611.00      5628.47
      1.57438      5606.00      5625.47
      1.57457      5645.00      5635.47
      1.57475      5568.00      5578.47
      1.57494      5645.00      5656.47
      1.57512      5512.00      5522.47
      1.57531      5632.00      5620.47
      1.57549      5645.00      5644.47
      1.57568      5592.00      5601.47
      1.57586      5620.00      5611.47
      1.57605      5619.00      5599.47
      1.57623      5531.00      5549.47
      1.57642      5710.00      5686.47
      1.57660      5620.00      5604.47
      1.57679      5587.00      5580.47
      1.57697      5623.00      5601.47
      1.57716      5662.00      5657.47
      1.57734      5538.00      5530.47
      1.57752      5767.00      5778.47
      1.57771      5619.00      5617.47
      1.57789      5587.00      5587.47
      1.57808      5671.00      5673.47
      1.57826      5633.00      5638.47
      1.57845      5626.00      5650.47
      1.57863      5629.00      5633.47
      1.57882      5556.00      5542.47
      1.57900      5693.00      5674.47
      1.57918      5563.00      5547.47
      1.57937      5719.00      5705.47
      1.57955      5583.00      5592.47
      1.57974      5664.00      5639.47
      1.57992      5670.00      5655.47
      1.58010      5646.00      5643.47
      1.58029      5653.00      5620.47
      1.58047      5735.00      5622.47
      1.58066      5723.00      5617.47
      1.58084      5849.00      5665.47
      1.58102      5749.00      5558.47
      1.58121      5791.00      5576.47
      1.58139      5777.00      5595.47
      1.58158      5792.00      5655.47
      1.58176      5770.00      5600.47
      1.58194      5774.00      5631.47
      1.58213      5721.00      5620.47
      1.58231      5746.00      5658.47
      1.58250      5693.00      5644.47
      1.58268      5783.00      5703.47
      1.58286      5761.00      5663.47
      1.58305      5691.00      5571.47
      1.58323      5778.00      5531.47
      1.58341      6011.00      5723.47
      1.58360      5950.00      5660.47
      1.58378      5934.00      5715.47
      1.58396      5815.00      5630.47
      1.58415      5781.00      5599.47
      1.58433      5777.00      5632.47
      1.58451      5756.00      5583.47
      1.58470      5817.00      5658.47
      1.58488      5868.00      5682.47
      1.58506      5749.00      5587.47
      1.58525      5803.00      5653.47
      1.58543      5793.00      5657.47
      1.58561      5815.00      5688.47
      1.58580      5753.00      5666.47
      1.58598      5901.00      5780.47
      1.58616      5778.00      5696.47
      1.58635      5782.00      5688.47
      1.58653      5763.00      5702.47
      1.58671      5769.00      5697.47
      1.58689      5694.00      5630.47
      1.58708      5818.00      5747.47
      1.58726      5722.00      5658.47
      1.58744      5769.00      5678.47
      1.58763      5763.00      5711.47
      1.58781      5752.00      5689.47
      1.58799      5696.00      5684.47
      1.58817      5734.00      5703.47
      1.58836      5696.00      5643.47
      1.58854      5774.00      5742.47
      1.58872      5727.00      5688.47
      1.58891      5738.00      5690.47
      1.58909      5744.00      5717.47
      1.58927      5703.00      5699.47
      1.58945      5756.00      5711.47
      1.58964      5767.00      5716.47
      1.58982      5707.00      5651.47
      1.59000      5763.00      5714.47
      1.59018      5710.00      5686.47
      1.59036      5762.00      5709.47
      1.59055      5692.00      5642.47
      1.59073      5774.00      5741.47
      1.59091      5724.00      5677.47
      1.59109      5730.00      5689.47
      1.59128      5676.00      5668.47
      1.59146      5741.00      5744.47
      1.59164      5690.00      5680.47
      1.59182      5666.00      5671.47
      1.59200      5727.00      5689.47
      1.59219      5795.00      5771.47
      1.59237      5663.00      5626.47
      1.59255      5720.00      5685.47
      1.59273      5677.00      5682.47
      1.59291      5795.00      5786.47
      1.59310      5720.00      5715.47
      1.59328      5748.00      5772.47
      1.59346      5711.00      5728.47
      1.59364      5712.00      5710.47
      1.59382      5750.00      5743.47
      1.59401      5867.00      5908.47
      1.59419      5719.00      5734.47
      1.59437      5818.00      5824.47
      1.59455      5825.00      5840.47
      1.59473      5866.00      5849.47
      1.59491      5706.00      5729.47
      1.59509      5861.00      5873.47
      1.59528      5839.00      5836.47
      1.59546      5896.00      5901.47
      1.59564      5877.00      5859.47
      1.59582      5914.00      5929.47
      1.59600      5872.00      5886.47
      1.59618      5902.00      5892.47
      1.59636      5867.00      5853.47
      1.59655      5957.00      5965.47
      1.59673      5861.00      5854.47
      1.59691      5906.00      5891.47
      1.59709      5903.00      5867.47
      1.59727      6112.00      6065.47
      1.59745      6002.00      5989.47
      1.59763      6029.00      5983.47
      1.59781      5998.00      5990.47
      1.59799      6045.00      5995.47
      1.59818      5958.00      5943.47
      1.59836      6096.00      6088.47
      1.59854      6031.00      6061.47
      1.59872      6046.00      6081.47
      1.59890      6013.00      6022.47
      1.59908      6044.00      6040.47
      1.59926      5895.00      5927.47
      1.59944      6049.00      6069.47
      1.59962      5970.00      5995.47
      1.59980      6015.00      6041.47
      1.59998      5926.00      597